; Name diameter(mm) Length(mm) delay propellant_weight(kg) mass(kg)
O18000-I 143 2438 P 9.82 21.76 SSI
0.010 1420.363
0.430 1761.880
0.850 1741.277
1.270 1720.451
1.690 1697.843
2.110 1675.456
2.530 1654.353
2.950 1632.553
3.360 1611.461
3.780 1590.006
4.200 1568.623
4.620 1547.112
5.040 1527.715
5.460 1508.370
5.880 1488.648
6.300 1469.490
6.720 1449.212
7.140 1429.913
7.560 1411.253
7.980 1393.226
8.400 1375.084
8.820 1356.971
9.230 1338.986
9.650 1322.025
10.070 1304.232
10.490 1285.500
10.910 1266.917
11.330 1249.572
11.750 1231.597
12.162 0.000
